Time; Amplitude
0.0;0.0
9.999999999999999e-05;1.8280741060127203e-08
0.0011;2.240044824787605e-06
0.0021000000000000003;8.265485955140785e-06
0.0031000000000000003;1.8230375402356106e-05
0.0041;3.226778958512526e-05
0.0051;5.050806897838873e-05
0.0061;7.307877827027542e-05
0.0071;0.0001001046677739778
0.0081;0.00013170763609988856
0.0091;0.00016800669409286356
0.010100000000000001;0.00020911793003901437
0.011100000000000002;0.00025515447614597714
0.012100000000000003;0.00030622647630014623
0.013100000000000004;0.00036244105510390703
0.014100000000000005;0.00042390228819545034
0.015100000000000006;0.0004907111738532998
0.016100000000000007;0.0005629656058872364
0.017100000000000008;0.0006407603478168591
0.01810000000000001;0.0007241870083385768
0.01910000000000001;0.0008133340180813897
0.02010000000000001;0.0009082866076513775
0.02110000000000001;0.001009126786964382
0.022100000000000012;0.001115933325865938
0.023100000000000013;0.0012287817360370793
0.024100000000000014;0.0013477442541842276
0.025100000000000015;0.0014728898265109417
0.026100000000000016;0.0016042840944688979
0.027100000000000016;0.0017419893817850534
0.028100000000000017;0.0018860646827615383
0.029100000000000018;0.002036565651844413
0.03010000000000002;0.002193544594457031
0.03110000000000002;0.0023570504590933483
0.03210000000000002;0.002527128830666127
0.03310000000000002;0.002703821925104594
0.03410000000000002;0.0028871685851957277
0.03510000000000002;0.0030772042776629786
0.03610000000000002;0.003273961091475837
0.03710000000000002;0.003477467737383305
0.03810000000000002;0.0036877495486639634
0.039100000000000024;0.003904828483084955
0.040100000000000025;0.004128723126061865
0.041100000000000025;0.004359448695011117
0.042100000000000026;0.004597017044886164
0.04310000000000003;0.004841436674888413
0.04410000000000003;0.005092712736343491
0.04510000000000003;0.00535084704173313
0.04610000000000003;0.005615838074872618
0.04710000000000003;0.0058876810022234615
0.04810000000000003;0.00616636768533057
0.04910000000000003;0.006451886694372994
0.05010000000000003;0.00674422332281693
0.051100000000000034;0.007043359603159404
0.052100000000000035;0.007349274323750785
0.053100000000000036;0.0076619430466839614
0.05410000000000004;0.007981338126737767
0.05510000000000004;0.00830742873136195
0.05610000000000004;0.008640180861690733
0.05710000000000004;0.008979557374571723
0.05810000000000004;0.009325518005596726
0.05910000000000004;0.009678019393120716
0.06010000000000004;0.010037015103255026
0.06110000000000004;0.010402455655820535
0.062100000000000044;0.010774288551246458
0.06310000000000004;0.011152458298400083
0.06410000000000005;0.011536906443332585
0.06510000000000005;0.01192757159892587
0.06610000000000005;0.012324389475425166
0.06710000000000005;0.012727292911841898
0.06810000000000005;0.0131362119082112
0.06910000000000005;0.01355107365868821
0.07010000000000005;0.013971802585467149
0.07110000000000005;0.014398320373506992
0.07210000000000005;0.01483054600604739
0.07310000000000005;0.015268395800898333
0.07410000000000005;0.015711783447486898
0.07510000000000006;0.016160620044644292
0.07610000000000006;0.01661481413911624
0.07710000000000006;0.01707427176477968
0.07810000000000006;0.017538896482548517
0.07910000000000006;0.018008589420951217
0.08010000000000006;0.01848324931736272
0.08110000000000006;0.01896277255987322
0.08210000000000006;0.01944705322977617
0.08310000000000006;0.01993598314465777
0.08410000000000006;0.020429451902070194
0.08510000000000006;0.020927346923770605
0.08610000000000007;0.02142955350050808
0.08710000000000007;0.021935954837340368
0.08810000000000007;0.02244643209946244
0.08910000000000007;0.0229608644585287
0.09010000000000007;0.023479129139450633
0.09110000000000007;0.024001101467651765
0.09210000000000007;0.024526654916761564
0.09310000000000007;0.025055661156730108
0.09410000000000007;0.025587990102345148
0.09510000000000007;0.02612350996213329
0.09610000000000007;0.026662087287626934
0.09710000000000008;0.027203587022978655
0.09810000000000008;0.027747872554904712
0.09910000000000008;0.028294805762939326
0.10010000000000008;0.028844247069981455
0.10110000000000008;0.02939605549311576
0.10210000000000008;0.02995008869468953
0.10310000000000008;0.030506203033627277
0.10410000000000008;0.03106425361696489
0.10510000000000008;0.03162409435158513
0.10610000000000008;0.03218557799613644
0.10710000000000008;0.032748556213116925
0.10810000000000008;0.03331287962110567
0.10910000000000009;0.033878397847123286
0.11010000000000009;0.034444959579104026
0.11110000000000009;0.03501241261846158
0.11210000000000009;0.03558060393273091
0.11310000000000009;0.036149379708268495
0.11410000000000009;0.03671858540299353
0.11510000000000009;0.03728806579915261
0.11610000000000009;0.0378576650560906
0.11710000000000009;0.03842722676301058
0.1181000000000001;0.03899659399170557
0.1191000000000001;0.03956560934924532
0.1201000000000001;0.04013411503060113
0.1211000000000001;0.04070195287119202
0.1221000000000001;0.0412689643993357
0.1231000000000001;0.04183499088858786
0.1241000000000001;0.0423998734099534
0.1251000000000001;0.04296345288395358
0.1261000000000001;0.04352557013253287
0.1271000000000001;0.044086065930789786
0.1281000000000001;0.04464478105851593
0.1291000000000001;0.045201556351527686
0.1301000000000001;0.045756232752775204
0.1311000000000001;0.04630865136321342
0.1321000000000001;0.04685865349242006
0.1331000000000001;0.0474060807089459
0.1341000000000001;0.04795077489038229
0.1351000000000001;0.0484925782731318
0.1361000000000001;0.0490313335018674
0.1371000000000001;0.049566883678666115
0.1381000000000001;0.05009907241180334
0.1391000000000001;0.050627743864193914
0.1401000000000001;0.05115274280146648
0.14110000000000011;0.05167391463965783
0.14210000000000012;0.052191105492514094
0.14310000000000012;0.05270416221838581
0.14410000000000012;0.05321293246670421
0.14510000000000012;0.05371726472402623
0.14610000000000012;0.054217008359635964
0.14710000000000012;0.05471201367069051
0.14810000000000012;0.055202131926898323
0.14910000000000012;0.05568721541471861
0.15010000000000012;0.05616711748107019
0.15110000000000012;0.056641692576538824
0.15210000000000012;0.057110796298072024
0.15310000000000012;0.05757428543115067
0.15410000000000013;0.05803201799142695
0.15510000000000013;0.05848385326581849
0.15610000000000013;0.058929651853048534
0.15710000000000013;0.059369275703622645
0.15810000000000013;0.05980258815923225
0.15910000000000013;0.06022945399157586
0.16010000000000013;0.060649739440588955
0.16110000000000013;0.06106331225207372
0.16210000000000013;0.06147004171472015
0.16310000000000013;0.061869798696510256
0.16410000000000013;0.06226245568049735
0.16510000000000014;0.06264788679995255
0.16610000000000014;0.06302596787287115
0.16710000000000014;0.06339657643583142
0.16810000000000014;0.06375959177719889
0.16910000000000014;0.06411489496966936
0.17010000000000014;0.06446236890214412
0.17110000000000014;0.06480189831093097
0.17210000000000014;0.06513336981026538
0.17310000000000014;0.06545667192214558
0.17410000000000014;0.06577169510547645
0.17510000000000014;0.06607833178451682
0.17610000000000015;0.06637647637662505
0.17710000000000015;0.0666660253192985
0.17810000000000015;0.06694687709650193
0.17910000000000015;0.06721893226428113
0.18010000000000015;0.06748209347565726
0.18110000000000015;0.06773626550479857
0.18210000000000015;0.06798135527046585
0.18310000000000015;0.06821727185872843
0.18410000000000015;0.06844392654494767
0.18510000000000015;0.06866123281502533
0.18610000000000015;0.0688691063859143
0.18710000000000016;0.06906746522538938
0.18810000000000016;0.06925622957107629
0.18910000000000016;0.06943532194873696
0.19010000000000016;0.06960466718980982
0.19110000000000016;0.0697641924482037
0.19210000000000016;0.06991382721634438
0.19310000000000016;0.07005350334047303
0.19410000000000016;0.07018315503519594
0.19510000000000016;0.07030271889728543
0.19610000000000016;0.07041213391873168
0.19710000000000016;0.07051134149904574
0.19810000000000016;0.07060028545681428
0.19910000000000017;0.07067891204050639
0.20010000000000017;0.07074716993853368
0.20110000000000017;0.07080501028856458
0.20210000000000017;0.07085238668609413
0.20310000000000017;0.070889255192271
0.20410000000000017;0.07091557434098333
0.20510000000000017;0.0709313051452055
0.20610000000000017;0.07093641110260798
0.20710000000000017;0.07093085820043277
0.20810000000000017;0.07091461491963691
0.20910000000000017;0.07088765223830716
0.21010000000000018;0.07084994363434867
0.21110000000000018;0.07080146508745103
0.21210000000000018;0.07074219508033518
0.21310000000000018;0.07067211459928475
0.21410000000000018;0.0705912071339659
0.21510000000000018;0.07049945867653941
0.21610000000000018;0.07039685772006964
0.21710000000000018;0.07028339525623453
0.21810000000000018;0.07015906477234145
0.21910000000000018;0.07002386224765354
0.22010000000000018;0.06987778614903181
0.22110000000000019;0.06972083742589791
0.2221000000000002;0.0695530195045231
0.2231000000000002;0.0693743382816489
0.2241000000000002;0.06918480211744514
0.2251000000000002;0.06898442182781121
0.2261000000000002;0.06877321067602667
0.2271000000000002;0.06855118436375732
0.2281000000000002;0.06831836102142314
0.2291000000000002;0.06807476119793449
0.2301000000000002;0.06782040784980348
0.2311000000000002;0.06755532632963702
0.2321000000000002;0.06727954437401877
0.2331000000000002;0.06699309209078685
0.2341000000000002;0.06669600194571482
0.2351000000000002;0.06638830874860296
0.2361000000000002;0.06607004963878776
0.2371000000000002;0.06574126407007684
0.2381000000000002;0.06540199379511744
0.2391000000000002;0.06505228284920601
0.2401000000000002;0.06469217753354727
0.2411000000000002;0.06432172639797046
0.2421000000000002;0.06394098022311143
0.2431000000000002;0.06354999200206847
0.2441000000000002;0.06314881692154074
0.2451000000000002;0.06273751234245756
0.2461000000000002;0.0623161377801073
0.2471000000000002;0.06188475488377465
0.2481000000000002;0.06144342741589504
0.2491000000000002;0.06099222123073515
0.2501000000000002;0.06053120425260854
0.2511000000000002;0.06006044645363545
0.2521000000000002;0.059580019831055965
0.2531000000000002;0.059089998384105745
0.2541000000000002;0.05859045809046369
0.2551000000000002;0.058081476882280866
0.2561000000000002;0.057563134621800155
0.2571000000000002;0.057035513076576116
0.2581000000000002;0.05649869589430466
0.2591000000000002;0.05595276857727209
0.2601000000000002;0.05539781845643323
0.2611000000000002;0.05483393466512831
0.2621000000000002;0.05426120811244836
0.2631000000000002;0.053679731456259004
0.2641000000000002;0.053089599075892294
0.2651000000000002;0.05249090704451665
0.2661000000000002;0.051883753101194696
0.2671000000000002;0.0512682366226389
0.2681000000000002;0.05064445859467503
0.26910000000000023;0.05001252158342333
0.27010000000000023;0.04937252970620746
0.27110000000000023;0.04872458860220112
0.27210000000000023;0.04806880540282243
0.27310000000000023;0.04740528870188602
0.27410000000000023;0.04673414852552294
0.27510000000000023;0.04605549630187829
0.27610000000000023;0.04536944483059663
0.27710000000000024;0.044676108252105266
0.27810000000000024;0.043975602016705265
0.27910000000000024;0.04326804285348027
0.28010000000000024;0.04255354873903311
0.28110000000000024;0.041832238866060086
0.28210000000000024;0.041104233611772935
0.28310000000000024;0.040369654506178354
0.28410000000000024;0.03962862420022495
0.28510000000000024;0.0388812664338275
0.28610000000000024;0.03812770600377834
0.28710000000000024;0.03736806873155565
0.28810000000000024;0.036602481431038364
0.28910000000000025;0.03583107187613751
0.29010000000000025;0.03505396876835348
0.29110000000000025;0.03427130170426901
0.29210000000000025;0.03348320114298728
0.29310000000000025;0.03268979837352483
0.29410000000000025;0.03189122548216856
0.29510000000000025;0.03108761531980633
0.29610000000000025;0.030279101469240517
0.29710000000000025;0.0294658182124937
0.29810000000000025;0.028647900498115823
0.29910000000000025;0.027825483908501862
0.30010000000000026;0.026998704627229177
0.30110000000000026;0.02616769940642348
0.30210000000000026;0.025332605534162406
0.30310000000000026;0.02449356080192549
0.30410000000000026;0.023650703472099376
0.30510000000000026;0.022804172245546952
0.30610000000000026;0.021954106229248968
0.30710000000000026;0.021100644904026744
0.30810000000000026;0.020243928092354358
0.30910000000000026;0.019384095926268684
0.31010000000000026;0.01852128881538555
0.31110000000000027;0.017655647415030166
0.31210000000000027;0.016787312594489907
0.31310000000000027;0.015916425405397443
0.31410000000000027;0.015043127050252063
0.31510000000000027;0.014167558851087005
0.31610000000000027;0.013289862218290448
0.31710000000000027;0.012410178619587754
0.31810000000000027;0.01152864954919241
0.3191000000000003;0.010645416497133067
0.3201000000000003;0.009760620918763887
0.3211000000000003;0.008874404204465378
0.3221000000000003;0.007986907649542734
0.3231000000000003;0.007098272424328608
0.3241000000000003;0.00620863954449712
0.3251000000000003;0.005318149841595799
0.3261000000000003;0.00442694393380203
0.3271000000000003;0.0035351621969104763
0.3281000000000003;0.0026429447355578064
0.3291000000000003;0.0017504313546909513
0.3301000000000003;0.0008577615312849978
0.3311000000000003;-3.492561368330924e-05
0.3321000000000003;-0.0009274913430005942
0.3331000000000003;-0.0018197973307146754
0.3341000000000003;-0.0027117056893595786
0.3351000000000003;-0.0036030789969022526
0.3361000000000003;-0.00449378032340563
0.3371000000000003;-0.005383673257402801
0.3381000000000003;-0.006272621931977194
0.3391000000000003;-0.007160491050543788
0.3401000000000003;-0.008047145912326503
0.3411000000000003;-0.008932452437527057
0.3421000000000003;-0.00981627719218069
0.3431000000000003;-0.010698487412694298
0.3441000000000003;-0.01157895103006265
0.3451000000000003;-0.012457536693758481
0.3461000000000003;-0.013334113795292387
0.3471000000000003;-0.014208552491438611
0.3481000000000003;-0.015080723727122871
0.3491000000000003;-0.01595049925796859
0.3501000000000003;-0.016817751672497966
0.3511000000000003;-0.01768235441398447
0.3521000000000003;-0.0185441818019535
0.3531000000000003;-0.019403109053328035
0.3541000000000003;-0.020259012303216264
0.3551000000000003;-0.02111176862533833
0.3561000000000003;-0.021961256052089394
0.3571000000000003;-0.022807353594236433
0.3581000000000003;-0.023649941260246263
0.3591000000000003;-0.02448890007524241
0.3601000000000003;-0.025324112099588632
0.3611000000000003;-0.02615546044709695
0.3621000000000003;-0.026982829302858266
0.3631000000000003;-0.027806103940693654
0.3641000000000003;-0.028625170740224685
0.3651000000000003;-0.02943991720356116
0.3661000000000003;-0.030250231971604775
0.3671000000000003;-0.031056004839967444
0.3681000000000003;-0.031857126774503024
0.3691000000000003;-0.03265348992645137
0.3701000000000003;-0.03344498764719381
0.3711000000000003;-0.03423151450261914
0.3721000000000003;-0.03501296628709951
0.3731000000000003;-0.035789240037075544
0.3741000000000003;-0.03656023404425031
0.3751000000000003;-0.037325847868391715
0.3761000000000003;-0.0380859823497432
0.3771000000000003;-0.03884053962104254
0.3781000000000003;-0.03958942311914888
0.3791000000000003;-0.040332537596278
0.3801000000000003;-0.04106978913084623
0.3811000000000003;-0.041801085137923216
0.38210000000000033;-0.04252633437929415
0.38310000000000033;-0.043245446973132
0.38410000000000033;-0.04395833440328044
0.38510000000000033;-0.04466490952814836
0.38610000000000033;-0.045365086589216806
0.38710000000000033;-0.04605878121915942
0.38810000000000033;-0.04674591044957757
0.38910000000000033;-0.047426392718351355
0.39010000000000034;-0.04810014787660786
0.39110000000000034;-0.04876709719530815
0.39210000000000034;-0.04942716337145452
0.39310000000000034;-0.05008027053391974
0.39410000000000034;-0.05072634424889988
0.39510000000000034;-0.05136531152499285
0.39610000000000034;-0.05199710081790436
0.39710000000000034;-0.05262164203478347
0.39810000000000034;-0.05323886653818987
0.39910000000000034;-0.05384870714969509
0.40010000000000034;-0.05445109815312003
0.40110000000000035;-0.05504597529741111
0.40210000000000035;-0.055633275799157715
0.40310000000000035;-0.05621293834475339
0.40410000000000035;-0.05678490309220346
0.40510000000000035;-0.05734911167258195
0.40610000000000035;-0.05790550719114053
0.40710000000000035;-0.058454034228072445
0.40810000000000035;-0.05899463883893443
0.40910000000000035;-0.059527268554729694
0.41010000000000035;-0.06005187238165508
0.41110000000000035;-0.060568400800515676
0.41210000000000035;-0.061076805765810135
0.41310000000000036;-0.06157704070449006
0.41410000000000036;-0.06206906051439694
0.41510000000000036;-0.06255282156238004
0.41610000000000036;-0.06302828168209892
0.41710000000000036;-0.06349540017151412
0.41810000000000036;-0.0639541377900697
0.41910000000000036;-0.06440445675557147
0.42010000000000036;-0.06484632074076462
0.42110000000000036;-0.0652796948696146
0.42210000000000036;-0.06570454571329531
0.42310000000000036;-0.06612084128588834
0.42410000000000037;-0.06652855103979746
0.42510000000000037;-0.0669276458608824
0.42610000000000037;-0.06731809806331591
0.42710000000000037;-0.06769988138416842
0.42810000000000037;-0.06807297097772438
0.42910000000000037;-0.06843734340953463
0.43010000000000037;-0.06879297665020896
0.43110000000000037;-0.06913985006895333
0.4321000000000004;-0.06947794442685597
0.4331000000000004;-0.06980724186992683
0.4341000000000004;-0.07012772592189487
0.4351000000000004;-0.07043938147676743
0.4361000000000004;-0.0707421947911565
0.4371000000000004;-0.07103615347637605
0.4381000000000004;-0.07132124649031532
0.4391000000000004;-0.07159746412909226
0.4401000000000004;-0.0718647980184921
0.4411000000000004;-0.07212324110519532
0.4421000000000004;-0.0723727876477999
0.4431000000000004;-0.07261343320764244
0.4441000000000004;-0.0728451746394226
0.4451000000000004;-0.07306801008163594
0.4461000000000004;-0.07328193894681953
0.4471000000000004;-0.07348696191161512
0.4481000000000004;-0.07368308090665465
0.4491000000000004;-0.07387029910627278
0.4501000000000004;-0.07404862091805112
0.4511000000000004;-0.07421805197219894
0.4521000000000004;-0.07437859911077518
0.4531000000000004;-0.07453027037675627
0.4541000000000004;-0.0746730750029547
0.4551000000000004;-0.07480702340079301
0.4561000000000004;-0.07493212714893793
0.4571000000000004;-0.07504839898179938
0.4581000000000004;-0.07515585277789902
0.4591000000000004;-0.07525450354811317
0.4601000000000004;-0.0753443674237947
0.4611000000000004;-0.07542546164477863
0.4621000000000004;-0.07549780454727606
0.4631000000000004;-0.07556141555166117
0.4641000000000004;-0.0756163151501559
0.4651000000000004;-0.075662524894417
0.4661000000000004;-0.07570006738302985
0.4671000000000004;-0.07572896624891404
0.4681000000000004;-0.07574924614664481
0.4691000000000004;-0.07576093273969535
0.4701000000000004;-0.0757640526876041
0.4711000000000004;-0.07575863363307189
0.4721000000000004;-0.07574470418899315
0.4731000000000004;-0.07572229392542569
0.4741000000000004;-0.07569143335650363
0.4751000000000004;-0.07565215392729767
0.4761000000000004;-0.07560448800062711
0.4771000000000004;-0.07554846884382808
0.4781000000000004;-0.07548413061548213
0.4791000000000004;-0.0754115083521094
0.4801000000000004;-0.0753306379548308
0.4811000000000004;-0.07524155617600321
0.4821000000000004;-0.07514430060583188
0.4831000000000004;-0.07503890965896423
0.4841000000000004;-0.07492542256106897
0.4851000000000004;-0.07480387933540476
0.4861000000000004;-0.07467432078938219
0.4871000000000004;-0.07453678850112315
0.4881000000000004;-0.07439132480602159
0.4891000000000004;-0.0742379727833092
0.4901000000000004;-0.07407677624263019
0.4911000000000004;-0.07390777971062872
0.4921000000000004;-0.0737310284175527
0.4931000000000004;-0.07354656828387778
0.4941000000000004;-0.0733544459069549
0.49510000000000043;-0.0731547085476853
0.49610000000000043;-0.07294740411722614
